Temperature,Volume,Gibbs,Helmholtz,Entropy,Enthalpy,Electronic_E
0.0,188.40862460635046,-536132.1670166841,117.23704974042406,0.0,117.16898146640695,-536249.4040664245
5.0,188.40867765257101,-536132.1670439005,117.2370165543741,0.04049847543181562,117.16915395968537,-536249.4040604548
10.0,188.4155447858483,-536132.1696037838,117.2336834174337,1.3698740959821674,117.17949208606592,-536249.4032872012
15.0,188.44771252003102,-536132.1853977989,117.2142555714716,5.378588985451785,117.22768904469679,-536249.3996533704
20.0,188.52061574818725,-536132.2275774009,117.16376936097966,11.911930511083867,117.33603492398983,-536249.3913467618
25.0,188.64186694656314,-536132.3074284053,117.0698853639366,20.44812817791589,117.51709356535352,-536249.3773137692
30.0,188.8141459897137,-536132.4333339994,116.9235766567435,30.351073239354207,117.77290767957834,-536249.3569106561
35.0,189.03541426827525,-536132.6106569851,116.71925625891348,41.042542521554026,118.09830086111083,-536249.329913244
40.0,189.30163676872533,-536132.8422597519,116.45400377094455,52.08390712635571,118.4848398226021,-536249.2962635228
45.0,189.6085321007704,-536133.1292034878,116.12670949296353,63.176304092943155,118.92347766037382,-536249.2559129808
50.0,189.95237927224628,-536133.471359391,115.73739231805051,74.13030374529899,119.40584446671005,-536249.2087517091
55.0,190.32959864370105,-536133.8678620405,115.2868210222384,84.83256717164011,119.9247458343687,-536249.1546830628
60.0,190.73741815123665,-536134.317420353,114.7761201688181,95.22066099835035,120.47417139187932,-536249.0935405218
65.0,191.17418242488674,-536134.8185221402,114.20650641330103,105.26536139698874,121.04916887086756,-536249.0250285534
70.0,191.63863861933618,-536135.3695653245,113.57924927399759,114.95779405136034,121.64572015952862,-536248.9488145985
75.0,192.1298151715651,-536135.9689405273,112.89560286365099,124.301434498591,122.26058242616003,-536248.8645433909
80.0,192.6470518053211,-536136.6150820468,112.15674474387421,133.3071265001886,122.89114442153239,-536248.7718267908
85.0,193.19071225091588,-536137.3064984776,111.36360166596751,141.99075114682296,123.53528709132854,-536248.6701001435
90.0,193.76080451331947,-536138.0417902705,110.51706920811858,150.3695244159701,124.19133980953563,-536248.5588594786
95.0,194.35788748939817,-536138.8196589412,109.61783130298477,158.46178806687362,124.85797049810029,-536248.4374902443
100.0,194.98312830535636,-536139.6389109449,108.66632358087097,166.2862241326618,125.53412578620002,-536248.3052345258
105.0,195.63694171320094,-536140.4984581704,107.66301398308899,173.85974225564928,126.21901354098641,-536248.1614721535
110.0,196.32130564141906,-536141.397316308,106.60789910983237,181.19980246290493,126.9120037296438,-536248.0052154178
115.0,197.03718887509785,-536142.3346019048,105.50106233475992,188.32126125508626,127.61265285162604,-536247.8356642396
120.0,197.78646170567697,-536143.3095286103,104.34224461799352,195.2383896483393,128.32063207906526,-536247.6517732283
125.0,198.57107880038902,-536144.3214028955,103.13102205415782,201.96385353433902,129.0357211470186,-536247.4524249496
130.0,199.39242055082352,-536145.3696193711,101.86698324715704,208.50804058194853,129.7577945567187,-536247.2366026182
135.0,200.2527010950926,-536146.4536556716,100.5493711471466,214.88046404044348,130.48678465620583,-536247.0030268187
140.0,201.15353830607634,-536147.5730667411,99.17745861522795,221.08835973694,131.22268568628706,-536246.7505253564
145.0,202.09652817981794,-536148.7274782218,97.75041082427263,227.13731312375148,131.96553302195912,-536246.4778890461
150.0,203.08285106494623,-536149.916578511,96.26740987659849,233.0309974224367,132.7153951828136,-536246.1839883876
155.0,204.1125201392643,-536151.1401089595,94.72791151184076,238.77079295855378,133.47236446621656,-536245.8680204713
160.0,205.1851492582274,-536152.3978516634,93.13145539087891,244.35667145624666,134.2365408233505,-536245.5293070542
165.0,206.2980178445486,-536153.6896144171,91.47832394381575,249.78626368719097,135.0080218730156,-536245.167938361
170.0,207.44772119748376,-536155.0152127827,89.76909278996854,255.05655190536822,135.78688503127,-536244.7843055726
175.0,208.62802267602913,-536156.3744498712,88.0054109156171,260.16325970799653,136.573170142679,-536244.3798607868
180.0,209.83129530896662,-536157.7670953572,86.18961839376173,265.10251567864134,137.36686467994423,-536243.956713751
185.0,211.04765914224134,-536159.1928661187,84.32512780925407,269.8712351750387,138.16788681360603,-536243.517993928
190.0,212.26709259421133,-536160.6514114104,82.41573941903198,274.46858184431903,138.97609043555127,-536243.0671508295
195.0,213.4785669824106,-536162.1423050534,80.46598261920164,278.89597845746266,139.7912591584735,-536242.6082876726
200.0,214.67253601389254,-536163.665045885,78.48018774214616,283.1577717620064,140.6131353710724,-536242.1452336272
205.0,215.8393993251992,-536165.2190658923,76.46303823068136,287.26063945683245,141.44141604634308,-536241.6821041229
210.0,216.97852655878825,-536166.8037438985,74.415870286583,291.2133008067983,142.27589187103823,-536241.2196141852
215.0,218.07268637495574,-536168.4184221461,72.34699785548261,295.02580065956363,143.1160986327521,-536240.7654200016
220.0,219.12706637876084,-536170.0624223646,70.25573873472325,298.70875753815835,143.96188968468468,-536240.3181610993
225.0,220.13706523435619,-536171.7350605816,68.1454983016114,302.2731124349723,144.81298089078433,-536239.8805588832
230.0,221.10379429884816,-536173.4356588288,66.01728659116058,305.72890492574084,145.669192161214,-536239.4529454199
235.0,222.0298135795775,-536175.1635543458,63.87140327758378,309.08498824592266,146.53038908885884,-536239.0349576235
240.0,222.91866782414263,-536176.9181059768,61.70758765475941,312.3488585959865,147.3964767107631,-536238.6256936315
245.0,223.7744754142103,-536178.6986979175,59.52516888235208,315.526645660505,148.26739149221177,-536238.2238667998
250.0,224.6014629729144,-536180.5047410293,57.32326499515035,318.623271300072,149.14309029587076,-536237.8280060245
255.0,225.4038114410836,-536182.3356720841,55.100853958510555,321.64258405800774,150.02354468969264,-536237.4365260426
260.0,226.18540454459966,-536184.1909514323,52.85690219604474,324.58758428619717,150.9087330020246,-536237.0478536284
265.0,226.94977778974223,-536186.0700595649,50.590404465190744,327.4605840549989,151.79863666909276,-536236.6604640301
270.0,227.56814163147135,-536187.9725158364,48.36908349513118,330.34968901430875,152.69017985993761,-536236.3415993315
275.0,228.24104559543196,-536189.8978711681,46.09096908432652,333.1351959480994,153.58784901516051,-536235.9888402524
280.0,228.89223798624542,-536191.8456805141,43.79585341277746,335.8676713032221,154.48982125432906,-536235.641533927
285.0,229.52388501928453,-536193.8155268651,41.48335346579623,338.54926096789836,155.39606387078302,-536235.2988803309
290.0,230.13802742566264,-536195.8070126876,39.153070833861335,341.18174663485297,156.30654607017223,-536234.9600835214
295.0,230.7365585625729,-536197.8197582874,36.80461006658615,343.7666145389271,157.22123772027584,-536234.624368354
300.0,231.32123629247303,-536199.8534001632,34.437578795714586,346.3050947476015,158.14010902909467,-536234.290978959
0.0,188.08782116689846,-536131.0333624494,117.27315251240584,0.0,117.1994448372078,-536248.3065149618
5.0,188.08788179614763,-536131.0333890532,117.27311908572909,0.03934815308892503,117.19961157050105,-536248.3065081389
10.0,188.09467100794782,-536131.0359087908,117.26983486440506,1.3490585576854803,117.20978876167862,-536248.3057436552
15.0,188.12631620918808,-536131.0515099715,117.25065884519616,5.318044827973345,117.25748526250047,-536248.3021688167
20.0,188.19775265885485,-536131.0932552612,117.20077413685755,11.80054389432405,117.36497148468172,-536248.294029398
25.0,188.317106789084,-536131.1723815843,117.10783456806789,20.28222930686286,117.54480700089498,-536248.2802161523
30.0,188.4864735896206,-536131.2972587849,116.96289909765815,30.13254067026577,117.79920317018407,-536248.2601578826
35.0,188.7038666456274,-536131.4732612359,116.76037197941524,40.776381105960354,118.12310140315893,-536248.2336332153
40.0,188.96548229125898,-536131.7032747128,116.49729087628278,51.776289086927136,118.50814346985653,-536248.200565589
45.0,189.26678779314736,-536131.9883864018,116.17256340248284,62.83295459674207,118.9453566934627,-536248.1609498042
50.0,189.6043661696139,-536132.3284913781,115.7861569986834,73.75650813700838,119.426378181732,-536248.1146483768
55.0,189.97440127638575,-536132.7227441504,115.33886579769923,84.43252095865898,119.94403822295166,-536248.0616099482
60.0,190.37467963722057,-536133.1698692825,114.83172889486035,94.7984162149204,120.49229538302914,-536248.0015981774
65.0,190.8029120296191,-536133.6683662427,114.26605754813684,104.82360086474603,121.0662245817593,-536247.9344237908
70.0,191.25787427731015,-536134.216641116,113.64312640827225,114.49870388355362,121.66179367385449,-536247.8597675242
75.0,191.73885818917992,-536134.8130896932,112.96415606687941,123.82712797545435,122.27573651942757,-536247.7772457601
80.0,192.24530740284607,-536135.4561488914,112.23031423849667,132.8195648731769,122.90542799454096,-536247.6864631298
85.0,192.77698984007222,-536136.1443277249,111.44265008957173,141.49098921959217,123.54875911735562,-536247.5869778146
90.0,193.33431158833147,-536136.8762251491,110.60200435364617,149.85899337950923,124.20403365059586,-536247.4782295028
95.0,193.91764581824324,-536137.6505394774,109.7091156790602,157.94165565680782,124.86991502508512,-536247.3596551564
100.0,194.52779351092101,-536138.4660724178,108.76452049556889,165.75725899010718,125.54534829659363,-536247.2305929133
105.0,195.16591837022463,-536139.3217296981,107.7685509114525,173.3236590393867,126.22951257167583,-536247.0902806096
110.0,195.83288562254717,-536140.2165195422,106.72147611120681,180.65717424889726,126.92179344848411,-536246.9379956534
115.0,196.53037128216826,-536141.149549836,105.62325176969026,187.77364753952634,127.62172142222948,-536246.7728016056
120.0,197.25974470348635,-536142.1200245072,104.47376923333285,194.6870309291137,128.32896718974726,-536246.5937937405
125.0,198.0227661113014,-536143.12723943,103.27269355916692,201.41009301284726,129.0433018870701,-536246.3999329892
130.0,198.82164531035733,-536144.1705780129,102.01943610177602,207.95438693114284,129.76457825225333,-536246.1900141147
135.0,199.6576823404599,-536145.2495064825,100.71351489870557,214.3288739011416,130.49273098406002,-536245.9630213812
140.0,200.53334552336554,-536146.3635687601,99.35400795576632,220.54199680745774,131.2277352646052,-536245.7175767159
145.0,201.45011623728777,-536147.5123806859,97.94013911343598,226.5996058244241,131.96962043122676,-536245.4525197993
150.0,202.40927410024403,-536148.6956232352,96.47108865632222,232.50584477005782,132.71844748921717,-536245.1667118915
155.0,203.41181038324018,-536149.9130342344,94.94603352832723,238.2631780181805,133.4743003100582,-536244.8590677627
160.0,204.45752258223453,-536151.1643980263,93.36445414357395,243.8718922880705,134.23727898860668,-536244.5288521699
165.0,205.54573093307602,-536152.4495325357,91.72595571234388,249.3309508471068,135.00748548066517,-536244.1754882481
170.0,206.67299285480019,-536153.7682734106,90.03106618173696,254.636933389374,135.7850124996862,-536243.7993395923
175.0,207.83531175368745,-536155.120455357,88.28059713923267,259.786124701018,136.56992605993395,-536243.4010524963
180.0,209.02584051110762,-536156.5058915758,86.47649027446633,264.77385855117745,137.36224839756125,-536242.9823818502
185.0,210.23588463146794,-536157.9243531296,84.62158302761682,269.59600680368817,138.16194182666243,-536242.5459361572
190.0,211.45608372223705,-536159.3755509012,82.71925333800078,274.25013547496565,138.96890579887892,-536242.0948042392
195.0,212.67501395152817,-536160.8591230286,80.77398870407073,278.7355694620635,139.78296153523513,-536241.6331117327
200.0,213.88290167535908,-536162.3746299881,78.79002556775062,283.05476740056315,140.60388338346155,-536241.1646555559
205.0,215.07000103152743,-536163.9215579664,76.77192848038473,287.2126319532922,141.43139629980345,-536240.6934864467
210.0,216.22761648884946,-536165.499329361,74.72417128923726,291.21647426511095,142.2651963458557,-536240.2235006503
215.0,217.34213128942932,-536167.1073175243,72.6535974457758,295.07585352526485,143.10487458539055,-536239.7609149701
220.0,218.4358834013218,-536168.7448656411,70.5521184596461,298.7994537496486,143.95054942605248,-536239.2969841007
225.0,219.47592558272132,-536170.4112987216,68.43503131186064,302.3995532459462,144.80150733554132,-536238.8463300334
230.0,220.47156899260955,-536172.1059413577,66.29993444329203,305.88624643571984,145.65767500123962,-536238.405875801
235.0,221.42458921622827,-536173.8281267626,64.1475152580415,309.26909099371846,146.51888857579178,-536237.9756420207
240.0,222.33794759016612,-536175.5772054448,61.97783610313135,312.5563931598165,147.3850262509518,-536237.555041548
245.0,223.21544629102362,-536177.3525507497,59.79044393591488,315.75508542009607,148.25600302160865,-536237.1429946856
250.0,224.06127500032227,-536179.153561755,57.58455127510281,318.87078790679016,149.13176119328062,-536236.7381130301
255.0,224.87970682922506,-536180.979663871,55.35916845468077,321.9079439290208,150.0122622738846,-536236.3388323257
260.0,225.67481512875978,-536182.83030749,53.1132421051899,324.8700300579253,150.8974785546583,-536235.9435495952
265.0,226.4504009312326,-536184.7049652406,50.84570155345628,327.7597128551554,151.7873889304717,-536235.5506667941
270.0,227.2098650168777,-536186.6031283238,48.55553805663092,330.5790470541267,152.68197374057024,-536235.1586663804
275.0,227.8029303945959,-536188.5243468871,46.323001409195,333.4322869828668,153.57767772886413,-536234.8473482963
280.0,228.46829872529835,-536190.4681655533,44.02427765108922,336.1718546295115,154.47983847408494,-536234.4924432044
285.0,229.1126926423347,-536192.4341566495,41.70869372306514,338.8600196489465,155.38625659960084,-536234.1428503726
290.0,229.7382449428487,-536194.4219139382,39.37583911273339,341.4987463298005,156.2968998092767,-536233.7977530509
295.0,230.34694167466176,-536196.4310499347,37.025302573408624,344.0896719230918,157.21173708518523,-536233.4563525082
300.0,230.94063472512735,-536198.4611942513,34.65667180190812,346.63414821648394,158.13073829046513,-536233.1178660532
0.0,187.77242123949034,-536129.9016239804,117.30864718067293,0.0,117.22986033678905,-536247.210271161
5.0,187.7724279048477,-536129.9016499816,117.30862042957028,0.03823610734523486,117.2300274324827,-536247.2102704112
10.0,187.77901314101547,-536129.9041302424,117.30539865747087,1.328682150449617,117.2400594755659,-536247.2095288999
15.0,187.81026916411884,-536129.919541805,117.28645622899724,5.258517341443479,117.28725208371337,-536247.2059980341
20.0,187.88058813610215,-536129.9608600505,117.23712577465287,11.69083498710961,117.3938621050292,-536247.1979858251
25.0,187.99782914638914,-536130.03927389,117.14514312380707,20.118385527734716,117.57251315520611,-536247.1844170138
30.0,188.1643955648102,-536130.1631401619,117.00155018361143,29.91644513362968,117.82550371300412,-536247.1646903455
35.0,188.37795577581156,-536130.3378447716,116.80078867770075,40.51286385816911,118.14792708937195,-536247.1386334492
40.0,188.63508609859832,-536130.5662966726,116.53983647883683,51.47146952335618,118.53148697985293,-536247.1061331515
45.0,188.93133082856207,-536130.8496088133,116.21757370099726,62.492873267462755,118.96726488375319,-536247.0671825144
50.0,189.26268100459671,-536131.187699952,115.83403498897465,73.38589113925764,119.44696473268381,-536247.021734941
55.0,189.62600865432512,-536131.5797444071,115.38991351780031,84.0359646360265,119.96338280495978,-536246.9696579248
60.0,190.0185890458315,-536132.0244823433,114.88631847765248,94.37918220103859,120.51050646590804,-536246.910800821
65.0,190.43867919764955,-536132.5204249182,114.32447986988596,104.38493439489048,121.0833750722371,-536246.8449047881
70.0,190.8849576615651,-536133.0659864754,113.70568700575478,114.04323771654572,121.67795437065877,-536246.7716734812
75.0,191.35606015902627,-536133.6595681397,113.03127862086595,123.35629629204061,122.29099570943524,-536246.6908467605
80.0,191.8520615336295,-536134.2996096635,112.30232743813902,132.33529001105876,122.91983499971451,-536246.6019371017
85.0,192.3724591544911,-536134.9846207564,111.51994228394311,140.99466337360582,123.56236374279088,-536246.5045630403
90.0,192.91741379381946,-536135.7131991975,110.68502864964827,149.35159406830553,124.21688235660065,-536246.3982278472
95.0,193.48750690651443,-536136.4840404632,109.79830524187447,157.42436892565456,124.88203638204843,-536246.2823457051
100.0,194.08355368718267,-536137.2959419212,108.86032468319121,165.2312967317389,125.55676087137412,-536246.1562666043
105.0,194.70624327283304,-536138.1478035693,107.87154516544715,172.78973534977513,126.24023719292256,-536246.0193487348
110.0,195.3567411006753,-536139.0386266126,106.83219857327946,180.11647303945733,126.93183323103631,-536245.8708251859
115.0,196.03642233797498,-536139.9675107177,105.74233868225485,187.22717678997583,127.63107608119124,-536245.7098494
120.0,196.74679286165957,-536140.9336504935,104.60185659979962,194.13616288568028,128.33762381568184,-536245.5355070933
125.0,197.48969375104616,-536141.9363315328,103.41042731047182,200.85653353737848,129.05123704331197,-536245.3467588433
130.0,198.26647388128112,-536142.9749261985,102.1677212115093,207.39925454482773,129.77177118750595,-536245.14264741
135.0,199.07962047002817,-536144.0488892115,100.87298087067214,213.77484041093567,130.49913458736768,-536244.9218700822
140.0,199.9306655696398,-536145.1577529766,99.52557194579036,219.99118560721263,131.23330465704817,-536244.6833249225
145.0,200.82158650952516,-536146.3011224712,98.12461879595847,226.05502758599596,131.9742958323063,-536244.4257412672
150.0,201.75397056351397,-536147.478669396,96.66924184698078,231.97117455523858,132.72215924316072,-536244.147911243
155.0,202.72932288493885,-536148.6901251697,95.15848318822775,237.74287061209657,133.47697042685712,-536243.848608358
160.0,203.74786814631742,-536149.9352722357,93.59169787153041,243.37098070136335,134.23882624278522,-536243.5269701072
165.0,204.80969139303753,-536151.2139331127,91.96823930152605,248.85515718914894,135.00782848924408,-536243.1821724143
170.0,205.912840080205,-536152.5259566769,90.28811086391946,254.19279784169294,135.78407856608857,-536242.8140675408
175.0,207.0539999999556,-536153.8712014713,88.55182618997007,259.38012835229165,136.56765992291668,-536242.4230276613
180.0,208.22816778714807,-536155.2495163853,86.76059048110399,264.4126109038864,137.35862446940575,-536242.0101068664
185.0,209.42765983003682,-536156.6607199273,84.91674191326128,269.2852515112463,138.15697316124493,-536241.5774618406
190.0,210.6435904023619,-536158.1045802468,83.02332280033721,273.9941823659103,138.96264617981464,-536241.1279030471
195.0,211.8659621832305,-536159.5807987425,81.08410248378746,278.5372668703403,139.77551692327367,-536240.6649012263
200.0,213.08357287261555,-536161.0890000276,79.10366732077398,282.9145924404029,140.5953866534883,-536240.1926673484
205.0,214.2863675118501,-536162.6287299872,77.08653374473215,287.12925519311307,141.42200829194078,-536239.7152637319
210.0,215.46736244180676,-536164.1994619329,75.03630864676974,291.18706975553346,142.25512520476525,-536239.2357705797
215.0,216.61295565162152,-536165.800609239,72.95961810901238,295.09553458350933,143.0943611943959,-536238.7602273481
220.0,217.72518154254757,-536167.4315414275,70.8568678939943,298.8643196297651,143.93952324212825,-536238.2884093215
225.0,218.79507428736642,-536169.0916012703,68.73319664589972,302.5036831650393,144.7902637077251,-536237.8247979161
230.0,219.82045148525282,-536170.7801201853,66.59102839844306,306.0244004930132,145.64632828517955,-536237.3711485838
